Vernier Format 2
forsok_23.txt 8/22/2022 13:45:26
Run 1
Time	Position	Velocity	Acceleration	Position	Velocity	Acceleration	
T	P	V	A	P	V	A	
s	m	m/s	m/s^2	m	m/s	m/s^2	

0.00	1.4360	0.026	0.149	0.936	0.011	0.172	
0.05	1.4370	0.033	0.156	0.936	0.023	0.130	
0.10	1.4390	0.041	0.165	0.939	0.021	0.144	
0.15	1.4410	0.049	0.180	0.937	0.033	0.231	
0.20	1.4440	0.058	0.217	0.942	0.049	0.265	
0.25	1.4470	0.067	0.339	0.943	0.056	0.356	
0.30	1.4500	0.088	0.516	0.947	0.080	0.504	
0.35	1.4550	0.125	0.560	0.950	0.111	0.576	
0.40	1.4630	0.153	0.427	0.957	0.144	0.525	
0.45	1.4710	0.168	0.261	0.965	0.168	0.369	
0.50	1.4800	0.177	0.128	0.975	0.183	0.171	
0.55	1.4890	0.179	0.037	0.984	0.182	0.032	
0.60	1.4980	0.179	-0.015	0.993	0.181	-0.017	
0.65	1.5070	0.178	-0.055	1.002	0.179	-0.041	
0.70	1.5160	0.172	-0.057	1.011	0.177	-0.045	
0.75	1.5240	0.171	-0.031	1.020	0.174	-0.037	
0.80	1.5330	0.170	-0.022	1.028	0.173	-0.027	
0.85	1.5410	0.169	-0.032	1.037	0.172	-0.032	
0.90	1.5500	0.168	-0.060	1.045	0.170	-0.036	
0.95	1.5580	0.162	-0.068	1.054	0.169	-0.047	
1.00	1.5660	0.160	-0.059	1.062	0.165	-0.060	
1.05	1.5740	0.158	-0.068	1.071	0.162	-0.055	
1.10	1.5820	0.152	-0.060	1.078	0.161	-0.077	
1.15	1.5890	0.151	-0.032	1.087	0.157	-0.132	
1.20	1.5970	0.150	-0.024	1.095	0.143	-0.105	
1.25	1.6040	0.149	-0.043	1.101	0.141	0.024	
1.30	1.6120	0.147	-0.090	1.108	0.150	0.088	
1.35	1.6190	0.140	-0.137	1.116	0.153	0.066	
1.40	1.6260	0.132	-0.185	1.123	0.156	0.006	
1.45	1.6320	0.126	-0.350	1.131	0.161	-0.212	
1.50	1.6390	0.108	-0.734	1.140	0.147	-0.648	
1.55	1.6440	0.061	-1.241	1.148	0.091	-0.977	
1.60	1.6470	-0.025	-1.538	1.150	0.034	-0.983	
1.65	1.6420	-0.119	-1.317	1.151	-0.019	-0.714	
1.70	1.6330	-0.172	-0.764	1.146	-0.043	-0.340	
1.75	1.6230	-0.188	-0.315	1.146	-0.041	-0.195	
1.80	1.6140	-0.192	-0.100	1.143	-0.054	-0.203	
1.85	1.6040	-0.195	0.015	1.140	-0.064	-0.165	
1.90	1.5940	-0.189	0.084	1.137	-0.078	-0.019	
1.95	1.5850	-0.183	0.076	1.131	-0.065	0.103	
2.00	1.5760	-0.181	0.040	1.131	-0.053	-0.026	
2.05	1.5670	-0.180	0.026	1.127	-0.074	-0.047	
2.10	1.5580	-0.179	0.043	1.121	-0.067	0.103	
2.15	1.5490	-0.177	0.087	1.121	-0.060	0.176	
2.20	1.5400	-0.170	0.117	1.115	-0.046	0.151	
2.25	1.5320	-0.163	0.100	1.116	-0.030	-0.118	
2.30	1.5240	-0.160	0.080	1.115	-0.063	-0.266	
2.35	1.5160	-0.157	0.100	1.109	-0.083	0.042	
2.40	1.5080	-0.150	0.118	1.104	-0.052	0.253	
2.45	1.5010	-0.143	0.089	1.105	-0.036	0.095	
2.50	1.4940	-0.141	0.051	1.102	-0.049	-0.002	
2.55	1.4870	-0.139	0.043	1.099	-0.044	0.025	
2.60	1.4800	-0.138	0.062	1.097	-0.044	0.030	
2.65	1.4730	-0.132	0.071	1.094	-0.037	-0.031	
2.70	1.4670	-0.130	0.069	1.095	-0.046	-0.114	
2.75	1.4600	-0.127	0.098	1.090	-0.059	-0.017	
2.80	1.4540	-0.120	0.119	1.087	-0.047	0.081	
2.85	1.4480	-0.113	0.100	1.085	-0.044	0.064	
2.90	1.4430	-0.110	0.080	1.083	-0.041	0.045	
2.95	1.4370	-0.107	0.100	1.081	-0.040	0.031	
3.00	1.4320	-0.100	0.118	1.079	-0.039	0.039	
3.05	1.4270	-0.093	0.090	1.077	-0.036	0.040	
3.10	1.4230	-0.091	0.053	1.076	-0.034	0.020	
3.15	1.4180	-0.089	0.051	1.074	-0.034	0.016	
3.20	1.4140	-0.087	0.081	1.072	-0.033	0.020	
3.25	1.4090	-0.081	0.099	1.071	-0.032	0.013	
3.30	1.4060	-0.074	0.069	1.069	-0.032	0.012	
3.35	1.4020	-0.076	0.070	1.067	-0.031	0.019	
3.40	1.3980	-0.069	0.101	1.066	-0.030	0.027	
3.45	1.3950	-0.063	0.089	1.064	-0.028	0.029	
3.50	1.3920	-0.060	0.068	1.063	-0.027	0.023	
3.55	1.3890	-0.058	0.074	1.062	-0.026	0.028	
3.60	1.3860	-0.052	0.081	1.060	-0.024	0.044	
3.65	1.3840	-0.049	0.086	1.059	-0.021	0.035	
3.70	1.3810	-0.046	0.117	1.058	-0.020	0.009	
3.75	1.3790	-0.035	0.101	1.057	-0.021	0.003	
3.80	1.3780	-0.033	0.042	1.056	-0.020	0.012	
3.85	1.3760	-0.035	0.051	1.055	-0.019	0.018	
3.90	1.3740	-0.029	0.090	1.054	-0.019	0.025	
3.95	1.3730	-0.023	0.079	1.053	-0.018	0.040	
4.00	1.3720	-0.021	0.051	1.052	-0.014	0.043	
4.05	1.3710	-0.019	0.051	1.052	-0.012	0.022	
4.10	1.3700	-0.017	0.079	1.051	-0.012	0.004	
4.15	1.3690	-0.011	0.088	1.051	-0.013	0.010	
4.20	1.3690	-0.005	0.042	1.050	-0.012	0.027	
4.25	1.3690	-0.008	0.023	1.050	-0.010	0.038	
4.30	1.3680	-0.007	0.068	1.049	-0.007	0.031	
4.35	1.3680	0.000	0.096	1.049	-0.006	0.019	
4.40	1.3680	0.007	0.056	1.048	-0.006	0.021	
4.45	1.3690	0.007	-0.018	1.048	-0.004	0.011	
4.50	1.3690	0.002	-0.044	1.048	-0.005	-0.001	
4.55	1.3690	0.001	-0.027	1.048	-0.005	0.002	
4.60	1.3690	0.000	-0.010	1.048	-0.004	0.004	
4.65	1.3690	0.000	-0.002	1.048	-0.004	0.006	
4.70	1.3690	0.000	-0.000	1.047	-0.004	0.008	
4.75	1.3690	0.000	0.000	1.047	-0.003	-0.000	
4.80	1.3690	0.000	0.000	1.047	-0.004	0.001	
4.85	1.3690	0.000	0.000	1.047	-0.003	0.015	
4.90	1.3690	0.000	0.000	1.047	-0.003	0.032	
4.95	1.3690	0.000	0.000	1.046	-0.000	0.052	
5.00	1.3690	0.000	0.000	1.047	0.003	0.065	
